Time (ms)	Ch1 V	Ch2 V	Ch1 A	Ch2 A
0.000	0.025	0.709	-2.617	0.012
0.005	0.061	0.776	-2.625	0.004
0.009	0.092	0.855	-2.625	0.004
0.014	0.122	0.928	-2.625	0.012
0.018	0.165	0.995	-2.609	0.012
0.023	0.195	1.062	-2.601	0.012
0.027	0.238	1.141	-2.592	0.012
0.032	0.262	1.202	-2.617	0.012
0.036	0.299	1.281	-2.609	0.020
0.041	0.329	1.348	-2.609	0.004
0.045	0.372	1.421	-2.601	0.004
0.050	0.402	1.495	-2.601	0.004
0.055	0.421	1.562	-2.601	0.012
0.059	0.469	1.629	-2.592	0.004
0.064	0.494	1.695	-2.592	0.012
0.068	0.524	1.756	-2.592	0.012
0.073	0.555	1.836	-2.592	-0.004
0.077	0.591	1.896	-2.576	0.012
0.082	0.628	1.957	-2.592	0.004
0.086	0.652	2.030	-2.592	0.004
0.091	0.688	2.109	-2.576	0.004
0.096	0.713	2.170	-2.576	0.004
0.100	0.762	2.250	-2.576	0.012
0.105	0.780	2.329	-2.568	0.004
0.109	0.829	2.383	-2.576	0.012
0.114	0.847	2.463	-2.576	0.012
0.118	0.883	2.542	-2.551	0.012
0.123	0.926	2.597	-2.560	0.012
0.127	0.962	2.682	-2.560	0.012
0.132	1.011	2.749	-2.551	0.012
0.136	1.023	2.816	-2.551	-0.004
0.141	1.060	2.889	-2.551	0.012
0.146	1.102	2.962	-2.551	0.020
0.150	1.139	3.035	-2.551	0.004
0.155	1.163	3.108	-2.543	0.004
0.159	1.200	3.181	-2.543	0.004
0.164	1.224	3.248	-2.535	0.004
0.168	1.273	3.315	-2.535	0.004
0.173	1.303	3.388	-2.535	0.012
0.177	1.334	3.455	-2.535	0.012
0.182	1.364	3.534	-2.519	0.004
0.187	1.407	3.595	-2.511	0.004
0.191	1.437	3.668	-2.527	-0.004
0.196	1.474	3.741	-2.519	0.004
0.200	1.516	3.808	-2.511	0.004
0.205	1.541	3.887	-2.494	0.004
0.209	1.577	3.954	-2.511	-0.004
0.214	1.608	4.021	-2.511	-0.004
0.218	1.638	4.094	-2.494	0.004
0.223	1.669	4.155	-2.486	0.004
0.227	1.711	4.234	-2.494	0.012
0.232	1.742	4.295	-2.486	0.004
0.237	1.772	4.374	-2.486	0.012
0.241	1.803	4.435	-2.478	0.004
0.246	1.839	4.508	-2.470	0.004
0.250	1.870	4.575	-2.470	0.004
0.255	1.900	4.654	-2.470	0.012
0.259	1.937	4.715	-2.461	0.012
0.264	1.967	4.794	-2.470	0.004
0.268	2.010	4.861	-2.453	-0.004
0.273	2.034	4.928	-2.461	0.012
0.278	2.077	4.995	-2.461	0.012
0.282	2.119	5.074	-2.445	0.004
0.287	2.131	5.141	-2.445	0.004
0.291	2.174	5.215	-2.445	0.012
0.296	2.211	5.288	-2.437	0.012
0.300	2.241	5.361	-2.429	-0.004
0.305	2.271	5.428	-2.420	0.004
0.309	2.314	5.507	-2.429	0.004
0.314	2.344	5.574	-2.429	0.004
0.318	2.375	5.641	-2.412	0.012
0.323	2.418	5.714	-2.396	0.012
0.328	2.460	5.787	-2.404	0.004
0.332	2.491	5.860	-2.404	-0.004
0.337	2.515	5.921	-2.388	0.004
0.341	2.545	5.994	-2.396	-0.004
0.346	2.582	6.067	-2.379	0.012
0.350	2.612	6.140	-2.396	-0.004
0.355	2.655	6.219	-2.379	0.004
0.359	2.692	6.286	-2.388	0.004
0.364	2.722	6.353	-2.371	0.012
0.369	2.752	6.432	-2.371	0.012
0.373	2.795	6.499	-2.355	0.004
0.378	2.832	6.584	-2.355	0.004
0.382	2.862	6.651	-2.363	0.012
0.387	2.892	6.730	-2.347	0.004
0.391	2.929	6.804	-2.339	-0.004
0.396	2.959	6.864	-2.322	0.020
0.400	2.996	6.931	-2.330	0.012
0.405	3.039	7.004	-2.330	-0.004
0.409	3.057	7.084	-2.322	-0.004
0.414	3.093	7.157	-2.314	0.004
0.419	3.136	7.218	-2.314	0.012
0.423	3.160	7.285	-2.314	0.004
0.428	3.197	7.370	-2.306	0.012
0.432	3.227	7.431	-2.298	0.004
0.437	3.276	7.498	-2.289	0.004
0.441	3.306	7.565	-2.298	0.012
0.446	3.337	7.644	-2.281	0.020
0.450	3.367	7.711	-2.273	0.004
0.455	3.386	7.778	-2.273	0.004
0.460	3.428	7.839	-2.265	0.020
0.464	3.459	7.918	-2.273	0.004
0.469	3.495	7.973	-2.257	0.004
0.473	3.532	8.052	-2.257	0.004
0.478	3.562	8.119	-2.257	0.012
0.482	3.587	8.186	-2.232	0.004
0.487	3.629	8.253	-2.232	0.012
0.491	3.660	8.326	-2.232	0.004
0.496	3.702	8.393	-2.240	0.004
0.500	3.733	8.466	-2.224	0.004
0.505	3.757	8.533	-2.216	0.004
0.510	3.794	8.600	-2.207	0.004
0.514	3.824	8.673	-2.207	0.004
0.519	3.860	8.746	-2.207	0.004
0.523	3.885	8.807	-2.191	0.004
0.528	3.921	8.874	-2.183	0.004
0.532	3.946	8.941	-2.175	-0.004
0.537	3.976	9.001	-2.175	0.012
0.541	4.001	9.062	-2.158	0.004
0.546	4.037	9.117	-2.175	0.012
0.551	4.067	9.178	-2.158	0.004
0.555	4.092	9.233	-2.158	0.020
0.560	4.122	9.294	-2.158	0.004
0.564	4.147	9.348	-2.150	0.004
0.569	4.171	9.409	-2.142	0.012
0.573	4.195	9.464	-2.126	0.004
0.578	4.238	9.537	-2.134	0.004
0.582	4.250	9.604	-2.117	-0.004
0.587	4.299	9.659	-2.109	0.004
0.591	4.329	9.732	-2.101	0.004
0.596	4.354	9.799	-2.117	0.004
0.601	4.396	9.872	-2.109	0.004
0.605	4.427	9.945	-2.101	0.004
0.610	4.463	10.018	-2.093	0.004
0.614	4.506	10.091	-2.093	0.012
0.619	4.536	10.170	-2.076	0.020
0.623	4.567	10.237	-2.068	0.020
0.628	4.609	10.316	-2.068	0.004
0.632	4.634	10.371	-2.060	0.004
0.637	4.664	10.438	-2.060	0.004
0.642	4.701	10.517	-2.052	0.004
0.646	4.719	10.572	-2.044	0.012
0.651	4.762	10.621	-2.044	-0.004
0.655	4.780	10.694	-2.027	0.004
0.660	4.816	10.743	-2.027	0.004
0.664	4.841	10.804	-2.027	0.012
0.669	4.871	10.864	-2.019	0.004
0.673	4.895	10.925	-2.011	0.004
0.678	4.920	10.980	-1.994	-0.004
0.682	4.956	11.029	-1.986	-0.004
0.687	4.969	11.090	-1.994	-0.004
0.692	5.005	11.157	-1.978	-0.004
0.696	5.036	11.218	-1.978	0.004
0.701	5.072	11.285	-1.970	0.012
0.705	5.090	11.345	-1.978	0.012
0.710	5.127	11.406	-1.962	0.004
0.714	5.157	11.467	-1.945	0.004
0.719	5.182	11.522	-1.937	0.012
0.723	5.212	11.577	-1.945	0.004
0.728	5.236	11.650	-1.929	0.012
0.733	5.267	11.699	-1.937	-0.004
0.737	5.291	11.753	-1.929	0.012
0.742	5.322	11.808	-1.913	0.004
0.746	5.340	11.875	-1.929	0.012
0.751	5.376	11.930	-1.904	-0.004
0.755	5.407	11.985	-1.888	0.004
0.760	5.425	12.046	-1.880	0.012
0.764	5.456	12.094	-1.896	-0.004
0.769	5.480	12.149	-1.872	0.004
0.773	5.504	12.210	-1.880	0.004
0.778	5.529	12.265	-1.863	-0.004
0.783	5.559	12.326	-1.880	0.012
0.787	5.583	12.374	-1.855	0.012
0.792	5.608	12.429	-1.855	0.004
0.796	5.632	12.478	-1.855	0.004
0.801	5.650	12.533	-1.831	0.004
0.805	5.687	12.581	-1.847	0.004
0.810	5.705	12.642	-1.806	0.012
0.814	5.730	12.679	-1.814	0.004
0.819	5.754	12.727	-1.814	0.004
0.824	5.778	12.794	-1.798	0.004
0.828	5.803	12.837	-1.806	0.004
0.833	5.821	12.886	-1.798	0.012
0.837	5.851	12.934	-1.790	0.012
0.842	5.876	12.989	-1.773	-0.012
0.846	5.894	13.032	-1.773	0.004
0.851	5.918	13.074	-1.773	0.012
0.855	5.949	13.135	-1.765	0.012
0.860	5.967	13.184	-1.749	0.004
0.864	5.985	13.239	-1.741	0.012
0.869	6.010	13.281	-1.732	0.012
0.874	6.040	13.336	-1.749	-0.004
0.878	6.071	13.397	-1.732	0.004
0.883	6.095	13.440	-1.732	0.012
0.887	6.113	13.488	-1.716	0.004
0.892	6.125	13.543	-1.708	0.004
0.896	6.162	13.586	-1.708	0.004
0.901	6.186	13.647	-1.700	0.012
0.905	6.204	13.683	-1.691	0.004
0.910	6.229	13.732	-1.683	-0.004
0.915	6.259	13.781	-1.675	0.012
0.919	6.278	13.836	-1.675	0.012
0.924	6.296	13.884	-1.667	0.004
0.928	6.320	13.921	-1.667	0.004
0.933	6.338	13.969	-1.659	0.012
0.937	6.369	14.012	-1.650	0.004
0.942	6.387	14.067	-1.642	0.004
0.946	6.424	14.122	-1.634	0.012
0.951	6.436	14.170	-1.642	-0.004
0.955	6.472	14.225	-1.626	0.004
0.960	6.485	14.274	-1.626	0.012
0.965	6.509	14.329	-1.610	0.012
0.969	6.545	14.377	-1.593	0.012
0.974	6.552	14.426	-1.601	0.004
0.978	6.582	14.481	-1.593	0.004
0.983	6.600	14.524	-1.593	0.012
0.987	6.631	14.578	-1.577	0.004
0.992	6.655	14.627	-1.577	-0.004
0.996	6.685	14.676	-1.569	0.004
1.001	6.704	14.731	-1.552	0.004
1.006	6.728	14.779	-1.560	0.012
1.010	6.759	14.840	-1.544	0.020
1.015	6.777	14.877	-1.536	0.004
1.019	6.801	14.931	-1.544	0.012
1.024	6.813	14.980	-1.528	0.012
1.028	6.850	15.029	-1.528	0.004
1.033	6.874	15.078	-1.519	0.004
1.037	6.892	15.132	-1.519	0.004
1.042	6.911	15.169	-1.503	0.012
1.046	6.935	15.230	-1.495	0.012
1.051	6.959	15.278	-1.495	0.012
1.056	6.984	15.321	-1.487	-0.004
1.060	7.014	15.376	-1.478	0.004
1.065	7.032	15.437	-1.462	0.012
1.069	7.063	15.473	-1.470	0.004
1.074	7.081	15.528	-1.462	0.012
1.078	7.106	15.583	-1.446	0.004
1.083	7.136	15.625	-1.454	0.012
1.087	7.154	15.692	-1.429	0.004
1.092	7.185	15.741	-1.429	0.012
1.097	7.209	15.784	-1.429	0.004
1.101	7.233	15.839	-1.421	0.004
1.106	7.258	15.893	-1.413	0.004
1.110	7.282	15.948	-1.413	-0.004
1.115	7.306	15.991	-1.397	-0.004
1.119	7.331	16.039	-1.405	-0.004
1.124	7.355	16.088	-1.397	0.004
1.128	7.361	16.155	-1.388	0.004
1.133	7.398	16.192	-1.380	0.012
1.137	7.422	16.240	-1.372	0.004
1.142	7.440	16.295	-1.372	0.004
1.147	7.465	16.350	-1.347	0.004
1.151	7.495	16.405	-1.356	0.012
1.156	7.520	16.453	-1.347	-0.004
1.160	7.550	16.502	-1.331	0.004
1.165	7.574	16.557	-1.339	0.012
1.169	7.593	16.618	-1.323	0.004
1.174	7.617	16.679	-1.323	0.012
1.178	7.653	16.715	-1.315	0.012
1.183	7.672	16.776	-1.306	0.004
1.188	7.702	16.837	-1.298	-0.004
1.192	7.727	16.886	-1.298	0.004
1.197	7.751	16.941	-1.290	0.004
1.201	7.775	16.989	-1.282	0.012
1.206	7.806	17.062	-1.282	0.004
1.210	7.824	17.111	-1.265	-0.004
1.215	7.854	17.154	-1.274	0.012
1.219	7.873	17.208	-1.249	0.004
1.224	7.897	17.263	-1.249	-0.004
1.228	7.927	17.318	-1.249	0.004
1.233	7.952	17.361	-1.233	0.004
1.238	7.970	17.415	-1.225	0.004
1.242	8.001	17.470	-1.233	0.004
1.247	8.013	17.525	-1.225	0.004
1.251	8.043	17.568	-1.200	0.012
1.256	8.067	17.622	-1.208	0.004
1.260	8.092	17.671	-1.200	0.004
1.265	8.122	17.732	-1.200	0.012
1.269	8.141	17.781	-1.192	0.012
1.274	8.171	17.836	-1.175	0.004
1.279	8.195	17.890	-1.175	0.012
1.283	8.226	17.939	-1.167	0.020
1.288	8.256	18.012	-1.159	0.004
1.292	8.274	18.055	-1.159	0.004
1.297	8.311	18.110	-1.159	0.004
1.301	8.329	18.170	-1.143	0.004
1.306	8.360	18.231	-1.143	-0.004
1.310	8.384	18.280	-1.126	0.004
1.315	8.408	18.341	-1.143	0.004
1.319	8.433	18.396	-1.118	0.012
1.324	8.463	18.450	-1.126	0.004
1.329	8.488	18.493	-1.110	0.012
1.333	8.524	18.560	-1.093	-0.004
1.338	8.536	18.609	-1.093	0.004
1.342	8.567	18.670	-1.093	0.004
1.347	8.585	18.718	-1.085	0.004
1.351	8.615	18.767	-1.077	0.004
1.356	8.640	18.828	-1.069	-0.004
1.360	8.664	18.877	-1.061	0.012
1.365	8.682	18.931	-1.053	0.004
1.370	8.713	18.980	-1.053	0.004
1.374	8.725	19.023	-1.053	-0.004
1.379	8.762	19.084	-1.036	0.004
1.383	8.780	19.132	-1.036	0.004
1.388	8.798	19.187	-1.028	0.004
1.392	8.816	19.230	-1.020	0.004
1.397	8.859	19.291	-1.020	0.012
1.401	8.883	19.339	-1.012	0.012
1.406	8.908	19.394	-1.003	0.004
1.410	8.926	19.443	-1.003	0.004
1.415	8.962	19.504	-1.003	0.004
1.420	8.987	19.559	-0.987	0.004
1.424	9.005	19.607	-0.987	0.012
1.429	9.029	19.662	-0.987	-0.004
1.433	9.054	19.705	-0.971	0.004
1.438	9.078	19.766	-0.962	0.012
1.442	9.103	19.820	-0.946	0.012
1.447	9.121	19.863	-0.946	0.012
1.451	9.151	19.912	-0.938	0.012
1.456	9.176	19.966	-0.946	0.012
1.461	9.200	20.015	-0.938	0.004
1.465	9.218	20.070	-0.921	0.020
1.470	9.243	20.106	-0.921	-0.004
1.474	9.267	20.167	-0.905	0.004
1.479	9.291	20.216	-0.905	0.012
1.483	9.316	20.259	-0.905	0.004
1.488	9.340	20.301	-0.905	0.004
1.492	9.352	20.350	-0.881	0.004
1.497	9.383	20.399	-0.897	0.004
1.501	9.395	20.447	-0.864	0.012
1.506	9.419	20.490	-0.872	-0.004
1.511	9.431	20.533	-0.872	0.004
1.515	9.462	20.581	-0.864	-0.004
1.520	9.474	20.624	-0.856	0.004
1.524	9.510	20.667	-0.840	-0.004
1.529	9.529	20.709	-0.840	-0.004
1.533	9.547	20.770	-0.848	0.004
1.538	9.571	20.807	-0.848	0.004
1.542	9.590	20.843	-0.831	0.012
1.547	9.602	20.904	-0.815	0.012
1.552	9.638	20.941	-0.807	0.020
1.556	9.644	20.977	-0.815	0.004
1.561	9.669	21.026	-0.807	0.004
1.565	9.681	21.062	-0.790	0.004
1.570	9.705	21.099	-0.782	0.004
1.574	9.730	21.154	-0.774	-0.004
1.579	9.748	21.190	-0.774	0.004
1.583	9.766	21.227	-0.774	0.012
1.588	9.784	21.282	-0.774	0.012
1.592	9.803	21.312	-0.766	0.004
1.597	9.827	21.367	-0.749	0.012
1.602	9.845	21.403	-0.741	0.004
1.606	9.870	21.446	-0.741	-0.004
1.611	9.888	21.495	-0.749	-0.004
1.615	9.906	21.531	-0.733	0.020
1.620	9.912	21.568	-0.717	0.004
1.624	9.955	21.610	-0.725	0.004
1.629	9.967	21.653	-0.709	0.004
1.633	9.991	21.696	-0.717	0.004
1.638	10.004	21.744	-0.717	0.004
1.643	10.028	21.775	-0.692	0.004
1.647	10.046	21.823	-0.700	0.004
1.652	10.064	21.866	-0.692	0.004
1.656	10.095	21.909	-0.684	0.004
1.661	10.107	21.945	-0.676	0.004
1.665	10.119	21.994	-0.659	0.004
1.670	10.138	22.024	-0.659	0.012
1.674	10.156	22.073	-0.659	0.020
1.679	10.174	22.116	-0.651	0.012
1.683	10.186	22.140	-0.643	-0.004
1.688	10.204	22.176	-0.635	0.004
1.693	10.229	22.207	-0.635	0.004
1.697	10.247	22.243	-0.627	0.004
1.702	10.253	22.286	-0.627	0.004
1.706	10.265	22.310	-0.618	-0.004
1.711	10.284	22.353	-0.618	0.004
1.715	10.296	22.377	-0.586	0.004
1.720	10.314	22.402	-0.594	0.004
1.724	10.320	22.432	-0.610	0.004
1.729	10.338	22.469	-0.594	0.004
1.734	10.357	22.499	-0.586	0.004
1.738	10.363	22.530	-0.577	0.012
1.743	10.375	22.554	-0.577	0.012
1.747	10.399	22.584	-0.577	0.012
1.752	10.411	22.621	-0.577	-0.004
1.756	10.430	22.664	-0.561	0.020
1.761	10.442	22.694	-0.569	0.012
1.765	10.472	22.737	-0.537	0.004
1.770	10.485	22.779	-0.537	0.012
1.774	10.503	22.822	-0.545	0.004
1.779	10.527	22.871	-0.537	-0.004
1.784	10.552	22.913	-0.528	0.012
1.788	10.570	22.950	-0.520	0.004
1.793	10.588	23.004	-0.520	-0.004
1.797	10.612	23.053	-0.520	-0.004
1.802	10.625	23.090	-0.496	0.012
1.806	10.643	23.145	-0.512	0.004
1.811	10.673	23.181	-0.487	0.004
1.815	10.698	23.236	-0.487	-0.004
1.820	10.710	23.278	-0.487	0.012
1.825	10.728	23.309	-0.479	0.004
1.829	10.752	23.358	-0.479	0.004
1.834	10.771	23.406	-0.455	0.004
1.838	10.783	23.437	-0.463	0.004
1.843	10.795	23.473	-0.463	-0.004
1.847	10.825	23.516	-0.455	0.004
1.852	10.838	23.559	-0.455	0.004
1.856	10.856	23.595	-0.446	0.004
1.861	10.874	23.638	-0.438	0.012
1.865	10.886	23.662	-0.430	0.004
1.870	10.917	23.717	-0.438	0.012
1.875	10.929	23.772	-0.422	0.004
1.879	10.959	23.808	-0.422	-0.004
1.884	10.984	23.857	-0.414	-0.004
1.888	11.002	23.899	-0.414	0.012
1.893	11.020	23.948	-0.397	0.004
1.897	11.039	23.991	-0.397	0.004
1.902	11.063	24.046	-0.389	0.012
1.906	11.093	24.094	-0.389	0.004
1.911	11.106	24.143	-0.389	0.004
1.916	11.136	24.186	-0.381	-0.004
1.920	11.154	24.240	-0.373	0.004
1.925	11.173	24.295	-0.364	-0.004
1.929	11.197	24.326	-0.373	0.012
1.934	11.215	24.387	-0.356	0.012
1.938	11.239	24.435	-0.356	-0.004
1.943	11.270	24.478	-0.356	0.004
1.947	11.288	24.527	-0.348	0.004
1.952	11.319	24.581	-0.348	0.020
1.956	11.331	24.624	-0.340	0.012
1.961	11.361	24.685	-0.348	0.004
1.966	11.380	24.734	-0.340	0.004
1.970	11.398	24.770	-0.332	0.004
1.975	11.416	24.837	-0.315	0.004
1.979	11.453	24.886	-0.307	0.004
1.984	11.465	24.947	-0.315	0.004
1.988	11.495	24.995	-0.315	0.004
1.993	11.520	25.038	-0.299	0.020
1.997	11.538	25.093	-0.299	0.004
2.002	11.562	25.135	-0.299	0.004
2.007	11.587	25.196	-0.299	0.012
2.011	11.605	25.233	-0.283	0.012
2.016	11.623	25.294	-0.291	0.020
2.020	11.647	25.336	-0.283	0.012
2.025	11.672	25.391	-0.291	0.004
2.029	11.684	25.434	-0.274	0.004
2.034	11.714	25.489	-0.266	0.020
2.038	11.739	25.543	-0.258	0.004
2.043	11.763	25.586	-0.258	0.020
2.047	11.781	25.635	-0.250	0.012
2.052	11.812	25.683	-0.258	0.004
2.057	11.830	25.732	-0.250	0.004
2.061	11.854	25.793	-0.242	0.004
2.066	11.879	25.842	-0.233	0.012
2.070	11.903	25.890	-0.233	0.004
2.075	11.921	25.945	-0.233	0.012
2.079	11.952	26.000	-0.217	0.012
2.084	11.976	26.067	-0.217	0.004
2.088	11.994	26.116	-0.225	0.012
2.093	12.019	26.176	-0.217	0.004
2.098	12.049	26.231	-0.217	0.004
2.102	12.074	26.292	-0.192	0.004
2.107	12.098	26.347	-0.209	0.012
2.111	12.128	26.402	-0.192	0.004
2.116	12.141	26.457	-0.201	0.012
2.120	12.177	26.517	-0.192	0.004
2.125	12.201	26.566	-0.192	0.004
2.129	12.220	26.615	-0.184	0.004
2.134	12.232	26.670	-0.176	0.004
2.138	12.268	26.724	-0.184	0.004
2.143	12.293	26.773	-0.176	0.020
2.148	12.305	26.834	-0.176	0.004
2.152	12.329	26.871	-0.176	0.012
2.157	12.354	26.931	-0.176	-0.004
2.161	12.372	26.992	-0.176	0.004
2.166	12.402	27.035	-0.168	0.004
2.170	12.421	27.090	-0.168	-0.004
2.175	12.439	27.138	-0.160	0.004
2.179	12.469	27.193	-0.160	0.004
2.184	12.494	27.242	-0.152	0.004
2.189	12.506	27.303	-0.152	0.004
2.193	12.530	27.352	-0.143	0.012
2.198	12.555	27.400	-0.127	0.004
2.202	12.579	27.449	-0.119	0.004
2.207	12.603	27.516	-0.152	0.004
2.211	12.622	27.559	-0.143	0.004
2.216	12.646	27.607	-0.135	-0.004
2.220	12.670	27.668	-0.135	0.004
2.225	12.682	27.717	-0.135	0.012
2.229	12.707	27.759	-0.102	0.020
2.234	12.731	27.820	-0.127	-0.004
2.239	12.743	27.869	-0.127	0.004
2.243	12.762	27.918	-0.119	0.004
2.248	12.792	27.973	-0.119	0.012
2.252	12.810	28.015	-0.119	0.012
2.257	12.835	28.070	-0.119	0.012
2.261	12.859	28.119	-0.102	0.012
2.266	12.883	28.180	-0.102	0.004
2.270	12.902	28.234	-0.102	0.004
2.275	12.920	28.283	-0.119	0.020
2.280	12.950	28.326	-0.094	0.012
2.284	12.975	28.380	-0.102	0.020
2.289	12.993	28.441	-0.094	0.004
2.293	13.017	28.484	-0.086	0.004
2.298	13.036	28.539	-0.094	0.004
2.302	13.048	28.587	-0.086	0.004
2.307	13.078	28.630	-0.094	0.020
2.311	13.084	28.673	-0.094	0.004
2.316	13.115	28.727	-0.078	0.004
2.320	13.139	28.770	-0.070	0.012
2.325	13.145	28.819	-0.086	0.012
2.330	13.169	28.868	-0.070	0.020
2.334	13.194	28.922	-0.070	0.004
2.339	13.212	28.965	-0.086	0.004
2.343	13.236	29.026	-0.078	0.012
2.348	13.261	29.075	-0.070	0.004
2.352	13.267	29.123	-0.078	0.012
2.357	13.297	29.172	-0.078	0.012
2.361	13.322	29.221	-0.078	-0.012
2.366	13.346	29.275	-0.078	0.012
2.371	13.364	29.324	-0.061	0.012
2.375	13.389	29.379	-0.070	0.004
2.380	13.407	29.422	-0.053	0.004
2.384	13.431	29.476	-0.070	0.004
2.389	13.450	29.525	-0.070	0.004
2.393	13.474	29.574	-0.061	0.004
2.398	13.498	29.629	-0.061	0.020
2.402	13.510	29.677	-0.053	-0.004
2.407	13.535	29.726	-0.061	-0.004
2.411	13.559	29.769	-0.053	0.012
2.416	13.577	29.823	-0.061	0.012
2.421	13.596	29.866	-0.053	0.004
2.425	13.614	29.915	-0.053	-0.004
2.430	13.638	29.957	-0.045	0.012
2.434	13.663	30.006	-0.053	-0.004
2.439	13.681	30.049	-0.053	0.004
2.443	13.699	30.097	-0.053	0.004
2.448	13.724	30.146	-0.053	0.020
2.452	13.742	30.195	-0.053	0.004
2.457	13.760	30.231	-0.037	0.004
2.462	13.784	30.286	-0.053	-0.004
2.466	13.803	30.323	-0.053	0.004
2.471	13.821	30.365	-0.053	-0.004
2.475	13.845	30.420	-0.053	0.004
2.480	13.870	30.469	-0.045	0.004
2.484	13.882	30.511	-0.053	-0.004
2.489	13.906	30.560	-0.037	0.004
2.493	13.937	30.615	-0.037	0.012
2.498	13.955	30.657	-0.053	0.012
2.502	13.979	30.712	-0.037	0.004
2.507	13.991	30.755	-0.045	0.004
2.512	14.010	30.791	-0.037	0.004
2.516	14.040	30.846	-0.037	0.004
2.521	14.064	30.901	-0.029	-0.004
2.525	14.077	30.950	-0.037	0.004
2.530	14.101	30.986	-0.045	0.004
2.534	14.119	31.029	-0.045	0.004
2.539	14.144	31.090	-0.037	0.004
2.543	14.156	31.120	-0.037	0.004
2.548	14.168	31.169	-0.029	0.012
2.553	14.198	31.212	-0.037	0.004
2.557	14.223	31.260	-0.037	0.012
2.562	14.241	31.303	-0.037	0.012
2.566	14.265	31.358	-0.029	-0.004
2.571	14.271	31.388	-0.037	-0.004
2.575	14.302	31.437	-0.045	0.004
2.580	14.320	31.479	-0.029	0.012
2.584	14.351	31.522	-0.029	0.004
2.589	14.363	31.571	-0.029	0.004
2.593	14.381	31.613	-0.037	0.004
2.598	14.399	31.662	-0.037	0.004
2.603	14.430	31.717	-0.020	0.004
2.607	14.448	31.759	-0.020	0.012
2.612	14.472	31.808	-0.037	0.012
2.616	14.485	31.845	-0.020	0.004
2.621	14.497	31.899	-0.029	0.012
2.625	14.527	31.942	-0.029	0.012
2.630	14.539	31.991	-0.020	0.004
2.634	14.570	32.033	-0.020	0.004
2.639	14.588	32.076	-0.004	0.012
2.644	14.612	32.119	-0.020	0.004
2.648	14.631	32.173	-0.012	0.012
2.653	14.655	32.216	-0.029	0.004
2.657	14.667	32.259	-0.020	0.004
2.662	14.692	32.313	-0.029	0.004
2.666	14.710	32.356	-0.020	0.004
2.671	14.740	32.405	-0.020	0.004
2.675	14.752	32.460	-0.020	0.004
2.680	14.777	32.502	-0.020	-0.004
2.684	14.801	32.545	-0.012	0.004
2.689	14.825	32.606	-0.020	0.004
2.694	14.850	32.654	-0.020	0.012
2.698	14.868	32.697	-0.012	0.004
2.703	14.880	32.746	-0.004	-0.004
2.707	14.905	32.788	-0.020	0.012
2.712	14.923	32.837	-0.004	0.004
2.716	14.953	32.886	-0.004	0.012
2.721	14.978	32.922	-0.004	0.004
2.725	14.984	32.977	-0.020	0.004
2.730	15.008	33.020	-0.020	0.004
2.735	15.039	33.062	-0.004	0.004
2.739	15.057	33.105	-0.012	-0.004
2.744	15.075	33.148	-0.012	0.004
2.748	15.087	33.202	-0.012	0.004
2.753	15.112	33.239	-0.004	0.004
2.757	15.142	33.306	-0.004	0.012
2.762	15.154	33.361	-0.004	0.012
2.766	15.179	33.391	-0.004	-0.012
2.771	15.203	33.452	-0.004	0.004
2.775	15.233	33.501	0.004	0.012
2.780	15.252	33.562	0.004	0.012
2.785	15.270	33.598	0.004	0.012
2.789	15.300	33.653	0.004	0.004
2.794	15.319	33.696	-0.004	0.012
2.798	15.349	33.744	0.004	-0.004
2.803	15.361	33.793	-0.004	0.004
